,stdWeights,<BH>,var(BH),sigma_star,balance,<A>,<var(A)>,var(<A>)
0,0.001,0.0,0.0,0.01,-1.0,0.0,0.0,0.0
1,0.0012,0.0,0.0,0.0119999999999999,-1.0,0.0,0.0,0.0
2,0.0013,0.0,0.0,0.013,-1.0,0.0,0.0,0.0
3,0.0015,0.0,0.0,0.015,-1.0,0.0,0.0,0.0
4,0.0018,0.0,0.0,0.018,-1.0,0.0,0.0,0.0
5,0.0021,0.0,0.0,0.0209999999999999,-1.0,0.0,0.0,0.0
6,0.0024,0.0,0.0,0.0239999999999999,-1.0,0.0,0.0,0.0
7,0.0028,0.0,0.0,0.0279999999999999,-1.0,0.0,0.0,0.0
8,0.0032,0.0,0.0,0.032,-1.0,0.0,0.0,0.0
9,0.0037,0.0,0.0,0.037,-1.0,0.0,0.0,0.0
10,0.0043,0.0,0.0,0.043,-1.0,0.0,0.0,0.0
11,0.005,0.0,0.0,0.0499999999999999,-1.0,0.0,0.0,0.0
12,0.0057,0.0,0.0,0.057,-1.0,0.0,0.0,0.0
13,0.0066,0.0,0.0,0.0659999999999999,-1.0,0.0,0.0,0.0
14,0.0077,0.0,0.0,0.077,-1.0,0.0,0.0,0.0
15,0.0089,0.0,0.0,0.089,-1.0,0.0,0.0,0.0
16,0.0103,0.0,0.0,0.103,-1.0,0.0,0.0,0.0
17,0.0119,0.0,0.0,0.119,-1.0,0.0,0.0,0.0
18,0.0138,0.0,0.0,0.1379999999999999,-0.999999999999572,0.0,0.0,0.0
19,0.0159,0.0,0.0,0.159,-0.999999999681116,0.0,0.0,0.0
20,0.0184,0.0,0.0,0.184,-0.9999999451367212,0.0,0.0,0.0
21,0.0213,0.0,0.0,0.213,-0.999997331788812,0.0,0.0,0.0
22,0.0247,0.0,0.0,0.247,-0.9999484713385688,0.0,0.0,0.0
23,0.0286,0.0,0.0,0.286,-0.9995286016839464,0.0,0.0,0.0
24,0.033,0.0,0.0,0.33,-0.9975569151728396,0.0,0.0,0.0
25,0.0382,0.0,0.0,0.3819999999999999,-0.991150161352996,1.0000000000000004e-05,0.0,9.900000000000004e-09
26,0.0442,0.0,0.0,0.442,-0.976329980327162,2.0000000000000005e-05,0.0,1.9600000000000017e-08
27,0.0512,0.0,0.0,0.512,-0.9491952147077408,4.000000000000001e-05,0.0,3.8400000000000026e-08
28,0.0592,0.0,0.0,0.592,-0.9088168199188752,8.000000000000002e-05,0.0,9.360000000000007e-08
29,0.0685,1.1710463870610238e-06,1.3576361442421902e-10,0.685,-0.855669800175008,0.000114995004995,2.49999750499251e-06,1.2926116630622134e-07
30,0.0792,1.1710463870610238e-06,1.3576361442421902e-10,0.792,-0.7932764749651616,0.000104995004995,2.49999750499251e-06,1.514510763961314e-07
31,0.0916,0.008886436572172883,0.007804603689562104,0.916,-0.7250363588131385,0.0002754845154845,1.6470542444568416e-05,8.020433336892876e-07
32,0.106,0.027643674854798763,0.024705793881479886,1.0599999999999998,-0.654521727371446,0.0007292107892107,6.317528625220932e-05,3.8086527622227934e-06
33,0.1226,0.11672275066619608,0.09136524912807378,1.226,-0.5853057693327919,0.0037936763236763,0.0008384087640631,6.714238840989183e-05
34,0.1419,0.3612762332676657,0.2046561586516308,1.4189999999999998,-0.519016515224879,0.0137103196803196,0.0049085788137936,0.0002710166673377
35,0.1641,0.6616581969366525,0.18825054830839277,1.6409999999999998,-0.457730404973411,0.0373052547452547,0.0198404882829458,0.0005949901474413
36,0.1899,0.7983558037239211,0.13136518844052483,1.899,-0.4015237067936949,0.0706817382617382,0.0528001351296056,0.0008391059469637
37,0.2197,0.8393672307751789,0.12217806831264832,2.197,-0.3510102786764392,0.1101595404595405,0.082676450702145,0.0006798166575781
38,0.2541,0.9286917333142485,0.05525842064405592,2.541,-0.3060836318705021,0.1463058041958042,0.0917183756902438,0.0006459776885231
39,0.294,0.932288062597843,0.05550010204513296,2.9399999999999995,-0.2662459287936297,0.1766126973026972,0.0914459318902875,0.0004945924663287
40,0.3401,0.953955898163545,0.03792744427163264,3.401,-0.2312659125814202,0.2034628071928072,0.0926681522673131,0.0004037813035886
41,0.3935,0.9621338045460708,0.02861652722618497,3.935,-0.2006045683646631,0.2270722977022977,0.0900195973856313,0.0004075340268054
42,0.4552,0.9784732075212035,0.009997440936341783,4.552,-0.1738824652804191,0.2497092307692308,0.0857913637012338,0.0003911381355072
43,0.5266,0.9355972594757758,0.046106526147099834,5.265999999999999,-0.1506105134934452,0.2699608991008991,0.0787170013203579,0.0004481462450241
44,0.6093,0.9128460750220114,0.06370152673014078,6.092999999999999,-0.130365498146058,0.2871402697302697,0.0710041801754688,0.0004372295408306
45,0.7049,0.892736305428969,0.07984613634136967,7.049,-0.1128126439073111,0.3019538861138861,0.0614460472793939,0.0004756561818744
46,0.8154,0.8750723462867467,0.09145969672331228,8.154,-0.0976071848038596,0.3138579020979021,0.0594338284891931,0.0004803023433333
47,0.9434,0.8494087559953892,0.10864278177249781,9.434,-0.0844173114063452,0.3262959540459541,0.0549999742914428,0.0004667950243238
48,1.0914,0.8603076088997232,0.1028847750760931,10.913999999999998,-0.0730043579327941,0.3357494205794205,0.0545761152932981,0.0004877483174379
49,1.2626,0.852309219046162,0.10939634612301496,12.626,-0.0631277657203553,0.3440468131868131,0.0543058161419,0.0004873561881878
50,1.4607,0.7801788775522945,0.15256759945189918,14.607,-0.0545807997750049,0.3512416883116883,0.0470483579357705,0.0003880789331199
51,1.6898,0.868274999379746,0.08496879147979311,16.898,-0.0471901463203058,0.3577850649350649,0.0429681509499491,0.0004160831244953
52,1.955,0.7781178975287301,0.15174215160431134,19.55,-0.0407947194157756,0.3638725274725274,0.0408313074937051,0.0003932090666376
53,2.2617,0.6769221935770277,0.19703756751776033,22.617,-0.0352665990035331,0.3690399800199799,0.0415675369385858,0.0004012884071169
54,2.6165,0.7610396379098249,0.15576873523939547,26.165,-0.030486923733238,0.3731838261738261,0.03828703200895,0.0003947040210837
55,3.027,0.7317825408080202,0.17081796147530215,30.27,-0.0263541279251804,0.3758455744255744,0.0376036448466618,0.0004008567236795
56,3.5019,0.7211172966945153,0.17460279361478942,35.019,-0.0227812369315893,0.3788401198801199,0.0396460224690394,0.0004315760282658
57,4.0513,0.7236850105837225,0.17532158232132694,40.513,-0.0196925319467447,0.3807615884115884,0.036293023998978,0.0004239325035479
58,4.6869,0.8122400366716849,0.12709103884364129,46.86899999999999,-0.0170224248099696,0.3830471428571428,0.0370157053336274,0.0004160875966929
59,5.4222,0.7632282903998922,0.15242000312834172,54.222,-0.0147143102790082,0.3847092007992008,0.0357253879786547,0.0004144494584355
60,6.2729,0.7382492808681372,0.16443108026652495,62.729,-0.0127190098219283,0.386152927072927,0.0361354562719997,0.0004185393388565
61,7.257,0.7305055742370449,0.16990922897437524,72.57,-0.0109943407848368,0.3887004395604396,0.034658517346789,0.0004280977402022
62,8.3956,0.6989238463188024,0.1821909050640941,83.95599999999999,-0.0095033790910153,0.3904952447552448,0.0344411123741393,0.0004413342396388
63,9.7127,0.7440725370291807,0.16487552733856392,97.127,-0.0082147133609192,0.3914217582417583,0.0345728892086934,0.0004005633566509
64,11.2365,0.772646522573367,0.15263584945850076,112.365,-0.0071007344684167,0.3932993606393605,0.0349744783887441,0.0004192428179057
65,12.9994,0.7165442421863355,0.17263347936181056,129.994,-0.0061377962941543,0.3939331368631368,0.0353792283041633,0.00045520955776
66,15.0389,0.7255018570232566,0.16763550504398708,150.38899999999998,-0.0053054324526497,0.3946456043956043,0.0331700122055766,0.0004202727731683
67,17.3983,0.7841154608161964,0.14555331824523632,173.98299999999998,-0.0045859662592508,0.3953142557442558,0.0344313183120575,0.0004146633216185
68,20.1279,0.7462699962783788,0.16372349581675497,201.279,-0.0039640562523272,0.3965711388611389,0.0319061927283505,0.0004106892360445
69,23.2857,0.7372140897569291,0.16375991295116812,232.857,-0.0034264896838097,0.3969885814185814,0.0325837457248046,0.0004355144355795
70,26.9389,0.7305999806035266,0.1697200413407799,269.389,-0.0029618237135498,0.3973865734265734,0.0336608358474692,0.0004293168979655
71,31.1653,0.7590164127836192,0.15509486945772763,311.653,-0.0025601652853341,0.3978938461538461,0.0340455054036872,0.0004257412878953
72,36.0547,0.7220644051515644,0.17484983093113887,360.547,-0.0022129806594674,0.3979167332667332,0.0337238371618391,0.0004247944742445
73,41.7112,0.7769910652526594,0.14366870492917622,417.112,-0.0019128766289846,0.3984144555444555,0.0330619915748587,0.0004129760152465
74,48.2552,0.7193085501071836,0.1740030882406401,482.552,-0.0016534673770256,0.3983705494505494,0.0337002767262707,0.000423893065729
75,55.8259,0.7408933700953186,0.16534729173099674,558.2589999999999,-0.0014292364907834,0.3983784915084915,0.0340324136203456,0.0004341966682199
76,64.5842,0.7010732956604039,0.18326860550954,645.8419999999999,-0.0012354170865162,0.3983812387612388,0.0331406079035849,0.0004396535096428
77,74.7167,0.7359475129571708,0.17133837495560422,747.167,-0.0010678795002944,0.39847999000999,0.0331337321020637,0.0004367041791865
78,86.4388,0.6933090856984314,0.18814183713876262,864.3879999999999,-0.0009230627713744,0.3986694005994006,0.0331271281365986,0.0004375807287468
79,100.0,0.744787691582234,0.1668760907402433,1000.0,-0.0007978844278221,0.3988472127872127,0.0331313482920675,0.00043315981327
